Frequency Dependent Energy Opacities 
T (keV), Density (gm/cc) =   8.0000E-01  3.1802E+01 
Photon energy(keV), Total, Absorp, Scatt (cm**2/gm) 
  1.0000E-03  1.1455E+01  1.1300E+01  1.5517E-01 
  2.0000E-03  4.9723E+01  4.9568E+01  1.5517E-01 
  3.0000E-03  1.1824E+02  1.1809E+02  1.5517E-01 
  4.0000E-03  2.1947E+02  2.1932E+02  1.5517E-01 
  5.0000E-03  3.5459E+02  3.5443E+02  1.5517E-01 
  6.0000E-03  5.2465E+02  5.2449E+02  1.5517E-01 
  7.0000E-03  7.3046E+02  7.3031E+02  1.5517E-01 
  8.0000E-03  9.7259E+02  9.7244E+02  1.5517E-01 
  9.0000E-03  1.2538E+03  1.2536E+03  1.5516E-01 
  1.0000E-02  1.5725E+03  1.5724E+03  1.5516E-01 
  1.1000E-02  1.9285E+03  1.9284E+03  1.5516E-01 
  1.2000E-02  2.3212E+03  2.3210E+03  1.5516E-01 
  1.3000E-02  2.7499E+03  2.7497E+03  1.5515E-01 
  1.4000E-02  3.2140E+03  3.2139E+03  1.5515E-01 
  1.5000E-02  3.7101E+03  3.7100E+03  1.5515E-01 
  1.6000E-02  4.2352E+03  4.2350E+03  1.5515E-01 
  1.7000E-02  4.7856E+03  4.7854E+03  1.5515E-01 
  1.8000E-02  5.3571E+03  5.3569E+03  1.5515E-01 
  1.9000E-02  5.9449E+03  5.9447E+03  1.5515E-01 
  2.0000E-02  6.5438E+03  6.5437E+03  1.5514E-01 
  2.1000E-02  7.1510E+03  7.1509E+03  1.5514E-01 
  2.2000E-02  7.7585E+03  7.7584E+03  1.5514E-01 
  2.3000E-02  8.3605E+03  8.3603E+03  1.5514E-01 
  2.4000E-02  8.9515E+03  8.9514E+03  1.5514E-01 
  2.5000E-02  9.5268E+03  9.5266E+03  1.5514E-01 
  2.6000E-02  1.0082E+04  1.0082E+04  1.5514E-01 
  2.7000E-02  1.0613E+04  1.0613E+04  1.5514E-01 
  2.8000E-02  1.1118E+04  1.1118E+04  1.5514E-01 
  2.9000E-02  1.1594E+04  1.1593E+04  1.5514E-01 
  3.0000E-02  1.2038E+04  1.2038E+04  1.5514E-01 
  3.1000E-02  1.2451E+04  1.2451E+04  1.5514E-01 
  3.2000E-02  1.2832E+04  1.2832E+04  1.5513E-01 
  3.3000E-02  1.3180E+04  1.3180E+04  1.5513E-01 
  3.4000E-02  1.3495E+04  1.3495E+04  1.5513E-01 
  3.5000E-02  1.3777E+04  1.3777E+04  1.5513E-01 
  3.6000E-02  1.4026E+04  1.4026E+04  1.5513E-01 
  3.7000E-02  1.4244E+04  1.4244E+04  1.5513E-01 
  3.8000E-02  1.4430E+04  1.4430E+04  1.5513E-01 
  3.9000E-02  1.4586E+04  1.4586E+04  1.5513E-01 
  4.0000E-02  1.4713E+04  1.4713E+04  1.5513E-01 
  4.1000E-02  1.4827E+04  1.4827E+04  1.5513E-01 
  4.2000E-02  1.4917E+04  1.4916E+04  1.5513E-01 
  4.3000E-02  1.4980E+04  1.4980E+04  1.5512E-01 
  4.4000E-02  1.5019E+04  1.5018E+04  1.5512E-01 
  4.5000E-02  1.5034E+04  1.5034E+04  1.5512E-01 
  4.6000E-02  1.5027E+04  1.5027E+04  1.5512E-01 
  4.7000E-02  1.4999E+04  1.4999E+04  1.5512E-01 
  4.8000E-02  1.4952E+04  1.4952E+04  1.5512E-01 
  4.9000E-02  1.4886E+04  1.4886E+04  1.5512E-01 
  5.0000E-02  1.4804E+04  1.4804E+04  1.5512E-01 
  5.1000E-02  1.4713E+04  1.4712E+04  1.5511E-01 
  5.2000E-02  1.4612E+04  1.4612E+04  1.5511E-01 
  5.3000E-02  1.4498E+04  1.4498E+04  1.5511E-01 
  5.4000E-02  1.4373E+04  1.4372E+04  1.5511E-01 
  5.5000E-02  1.4236E+04  1.4236E+04  1.5511E-01 
  5.6000E-02  1.4089E+04  1.4089E+04  1.5511E-01 
  5.7000E-02  1.3934E+04  1.3934E+04  1.5511E-01 
  5.8000E-02  1.3770E+04  1.3770E+04  1.5511E-01 
  5.9000E-02  1.3600E+04  1.3600E+04  1.5511E-01 
  6.0000E-02  1.3425E+04  1.3424E+04  1.5511E-01 
  6.1000E-02  1.3243E+04  1.3243E+04  1.5510E-01 
  6.2000E-02  1.3058E+04  1.3058E+04  1.5510E-01 
  6.3000E-02  1.2869E+04  1.2869E+04  1.5510E-01 
  6.4000E-02  1.2681E+04  1.2681E+04  1.5510E-01 
  6.5000E-02  1.2495E+04  1.2495E+04  1.5510E-01 
  6.6000E-02  1.2307E+04  1.2307E+04  1.5510E-01 
  6.7000E-02  1.2117E+04  1.2117E+04  1.5510E-01 
  6.8000E-02  1.1927E+04  1.1927E+04  1.5510E-01 
  6.9000E-02  1.1736E+04  1.1736E+04  1.5510E-01 
  7.0000E-02  1.1545E+04  1.1545E+04  1.5510E-01 
  7.1000E-02  1.1354E+04  1.1354E+04  1.5509E-01 
  7.2000E-02  1.1164E+04  1.1164E+04  1.5509E-01 
  7.3000E-02  1.0974E+04  1.0974E+04  1.5509E-01 
  7.4000E-02  1.0786E+04  1.0786E+04  1.5509E-01 
  7.5000E-02  1.0599E+04  1.0598E+04  1.5509E-01 
  7.6000E-02  1.0413E+04  1.0413E+04  1.5509E-01 
  7.7000E-02  1.0230E+04  1.0229E+04  1.5513E-01 
  7.8000E-02  1.0048E+04  1.0048E+04  1.5513E-01 
  7.9000E-02  9.8687E+03  9.8685E+03  1.5513E-01 
  8.0000E-02  9.6916E+03  9.6915E+03  1.5513E-01 
  8.1000E-02  9.5159E+03  9.5158E+03  1.5513E-01 
  8.2000E-02  9.3428E+03  9.3427E+03  1.5513E-01 
  8.3000E-02  9.1724E+03  9.1723E+03  1.5513E-01 
  8.4000E-02  9.0049E+03  9.0047E+03  1.5513E-01 
  8.5000E-02  8.8401E+03  8.8399E+03  1.5513E-01 
  8.6000E-02  8.6782E+03  8.6781E+03  1.5513E-01 
  8.7000E-02  8.5193E+03  8.5191E+03  1.5513E-01 
  8.8000E-02  8.3633E+03  8.3631E+03  1.5514E-01 
  8.9000E-02  8.2102E+03  8.2101E+03  1.5514E-01 
  9.0000E-02  8.0602E+03  8.0600E+03  1.5514E-01 
  9.1000E-02  7.9131E+03  7.9129E+03  1.5514E-01 
  9.2000E-02  7.7689E+03  7.7688E+03  1.5514E-01 
  9.3000E-02  7.6278E+03  7.6276E+03  1.5514E-01 
  9.4000E-02  7.4895E+03  7.4894E+03  1.5516E-01 
  9.5000E-02  7.3541E+03  7.3540E+03  1.5516E-01 
  9.6000E-02  7.2216E+03  7.2215E+03  1.5516E-01 
  9.7000E-02  7.0919E+03  7.0918E+03  1.5516E-01 
  9.8000E-02  6.9650E+03  6.9649E+03  1.5517E-01 
  9.9000E-02  6.8409E+03  6.8407E+03  1.5517E-01 
  1.0000E-01  6.7194E+03  6.7193E+03  1.5517E-01 
  1.0100E-01  6.6008E+03  6.6006E+03  1.5517E-01 
  1.0200E-01  6.4852E+03  6.4851E+03  1.5517E-01 
  1.0300E-01  6.3721E+03  6.3720E+03  1.5517E-01 
  1.0400E-01  6.2615E+03  6.2614E+03  1.5517E-01 
  1.0500E-01  6.1534E+03  6.1532E+03  1.5517E-01 
  1.0600E-01  6.0476E+03  6.0474E+03  1.5517E-01 
  1.0700E-01  5.9441E+03  5.9440E+03  1.5518E-01 
  1.0800E-01  5.8429E+03  5.8428E+03  1.5518E-01 
  1.0900E-01  5.7440E+03  5.7438E+03  1.5518E-01 
  1.1000E-01  5.6472E+03  5.6471E+03  1.5518E-01 
  1.1100E-01  5.5526E+03  5.5525E+03  1.5518E-01 
  1.1200E-01  5.4601E+03  5.4600E+03  1.5518E-01 
  1.1300E-01  5.3696E+03  5.3695E+03  1.5518E-01 
  1.1400E-01  5.2811E+03  5.2810E+03  1.5519E-01 
  1.1500E-01  5.1946E+03  5.1944E+03  1.5519E-01 
  1.1600E-01  5.1099E+03  5.1098E+03  1.5519E-01 
  1.1700E-01  5.0272E+03  5.0270E+03  1.5519E-01 
  1.1800E-01  4.9462E+03  4.9460E+03  1.5519E-01 
  1.1900E-01  4.8669E+03  4.8668E+03  1.5519E-01 
  1.2000E-01  4.7894E+03  4.7893E+03  1.5519E-01 
  1.2100E-01  4.7136E+03  4.7135E+03  1.5520E-01 
  1.2200E-01  4.6399E+03  4.6398E+03  1.5520E-01 
  1.2300E-01  4.5673E+03  4.5672E+03  1.5520E-01 
  1.2400E-01  4.4963E+03  4.4961E+03  1.5525E-01 
  1.2500E-01  4.4268E+03  4.4266E+03  1.5526E-01 
  1.2600E-01  4.3587E+03  4.3586E+03  1.5526E-01 
  1.2700E-01  4.2928E+03  4.2927E+03  1.5526E-01 
  1.2800E-01  4.2309E+03  4.2307E+03  1.5526E-01 
  1.2900E-01  4.1702E+03  4.1700E+03  1.5527E-01 
  1.3000E-01  4.1108E+03  4.1106E+03  1.5527E-01 
  1.3100E-01  4.0525E+03  4.0524E+03  1.5527E-01 
  1.3200E-01  3.9954E+03  3.9953E+03  1.5527E-01 
  1.3300E-01  3.9395E+03  3.9393E+03  1.5527E-01 
  1.3400E-01  3.8847E+03  3.8845E+03  1.5528E-01 
  1.3500E-01  3.8309E+03  3.8308E+03  1.5528E-01 
  1.3600E-01  3.7782E+03  3.7781E+03  1.5528E-01 
  1.3700E-01  3.7266E+03  3.7264E+03  1.5529E-01 
  1.3800E-01  3.6759E+03  3.6758E+03  1.5529E-01 
  1.3900E-01  3.6263E+03  3.6261E+03  1.5529E-01 
  1.4000E-01  3.5776E+03  3.5774E+03  1.5529E-01 
  1.4100E-01  3.5298E+03  3.5296E+03  1.5530E-01 
  1.4200E-01  3.4829E+03  3.4828E+03  1.5530E-01 
  1.4300E-01  3.4370E+03  3.4368E+03  1.5530E-01 
  1.4400E-01  3.3919E+03  3.3917E+03  1.5530E-01 
  1.4500E-01  3.3477E+03  3.3475E+03  1.5531E-01 
  1.4600E-01  3.3043E+03  3.3041E+03  1.5531E-01 
  1.4700E-01  3.2617E+03  3.2615E+03  1.5531E-01 
  1.4800E-01  3.2199E+03  3.2197E+03  1.5532E-01 
  1.4900E-01  3.1789E+03  3.1787E+03  1.5532E-01 
  1.5000E-01  3.1386E+03  3.1384E+03  1.5532E-01 
  1.5100E-01  3.0991E+03  3.0989E+03  1.5533E-01 
  1.5200E-01  3.0602E+03  3.0601E+03  1.5536E-01 
  1.5300E-01  3.0221E+03  3.0220E+03  1.5536E-01 
  1.5400E-01  2.9847E+03  2.9845E+03  1.5537E-01 
  1.5500E-01  2.9479E+03  2.9478E+03  1.5537E-01 
  1.5600E-01  2.9118E+03  2.9117E+03  1.5537E-01 
  1.5700E-01  2.8765E+03  2.8763E+03  1.5538E-01 
  1.5800E-01  2.8416E+03  2.8415E+03  1.5538E-01 
  1.5900E-01  2.8074E+03  2.8073E+03  1.5539E-01 
  1.6000E-01  2.7748E+03  2.7746E+03  1.5539E-01 
  1.6100E-01  2.7442E+03  2.7441E+03  1.5539E-01 
  1.6200E-01  2.7142E+03  2.7140E+03  1.5540E-01 
  1.6300E-01  2.6846E+03  2.6845E+03  1.5540E-01 
  1.6400E-01  2.6556E+03  2.6554E+03  1.5540E-01 
  1.6500E-01  2.6270E+03  2.6268E+03  1.5541E-01 
  1.6600E-01  2.5988E+03  2.5987E+03  1.5541E-01 
  1.6700E-01  2.5711E+03  2.5710E+03  1.5542E-01 
  1.6800E-01  2.5439E+03  2.5437E+03  1.5542E-01 
  1.6900E-01  2.5170E+03  2.5169E+03  1.5542E-01 
  1.7000E-01  2.4906E+03  2.4905E+03  1.5543E-01 
  1.7100E-01  2.4646E+03  2.4645E+03  1.5543E-01 
  1.7200E-01  2.4390E+03  2.4389E+03  1.5544E-01 
  1.7300E-01  2.4138E+03  2.4136E+03  1.5544E-01 
  1.7400E-01  2.3890E+03  2.3888E+03  1.5545E-01 
  1.7500E-01  2.3645E+03  2.3644E+03  1.5545E-01 
  1.7600E-01  2.3405E+03  2.3403E+03  1.5545E-01 
  1.7700E-01  2.3168E+03  2.3166E+03  1.5546E-01 
  1.7800E-01  2.2934E+03  2.2932E+03  1.5546E-01 
  1.7900E-01  2.2704E+03  2.2702E+03  1.5547E-01 
  1.8000E-01  2.2477E+03  2.2476E+03  1.5547E-01 
  1.8100E-01  2.2254E+03  2.2252E+03  1.5548E-01 
  1.8200E-01  2.2034E+03  2.2032E+03  1.5548E-01 
  1.8300E-01  2.1817E+03  2.1816E+03  1.5548E-01 
  1.8400E-01  2.1603E+03  2.1602E+03  1.5549E-01 
  1.8500E-01  2.1393E+03  2.1391E+03  1.5549E-01 
  1.8600E-01  2.1185E+03  2.1184E+03  1.5550E-01 
  1.8700E-01  2.0981E+03  2.0979E+03  1.5550E-01 
  1.8800E-01  2.0779E+03  2.0778E+03  1.5551E-01 
  1.8900E-01  2.0581E+03  2.0579E+03  1.5551E-01 
  1.9000E-01  2.0389E+03  2.0387E+03  1.5552E-01 
  1.9100E-01  2.0196E+03  2.0194E+03  1.5552E-01 
  1.9200E-01  2.0005E+03  2.0003E+03  1.5553E-01 
  1.9300E-01  1.9817E+03  1.9816E+03  1.5553E-01 
  1.9400E-01  1.9632E+03  1.9630E+03  1.5554E-01 
  1.9500E-01  1.9449E+03  1.9448E+03  1.5554E-01 
  1.9600E-01  1.9269E+03  1.9268E+03  1.5555E-01 
  1.9700E-01  1.9092E+03  1.9090E+03  1.5555E-01 
  1.9800E-01  1.8916E+03  1.8915E+03  1.5556E-01 
  1.9900E-01  1.8743E+03  1.8742E+03  1.5556E-01 
  2.0000E-01  1.8573E+03  1.8571E+03  1.5557E-01 
  2.0100E-01  1.8404E+03  1.8403E+03  1.5557E-01 
  2.0200E-01  1.8232E+03  1.8231E+03  1.5557E-01 
  2.0300E-01  1.8062E+03  1.8061E+03  1.5558E-01 
  2.0400E-01  1.7895E+03  1.7893E+03  1.5558E-01 
  2.0500E-01  1.7730E+03  1.7728E+03  1.5559E-01 
  2.0600E-01  1.7567E+03  1.7565E+03  1.5559E-01 
  2.0700E-01  1.7406E+03  1.7405E+03  1.5560E-01 
  2.0800E-01  1.7247E+03  1.7246E+03  1.5560E-01 
  2.0900E-01  1.7091E+03  1.7089E+03  1.5561E-01 
  2.1000E-01  1.6937E+03  1.6935E+03  1.5561E-01 
  2.1100E-01  1.6784E+03  1.6783E+03  1.5562E-01 
  2.1200E-01  1.6634E+03  1.6632E+03  1.5562E-01 
  2.1300E-01  1.6486E+03  1.6484E+03  1.5563E-01 
  2.1400E-01  1.6339E+03  1.6338E+03  1.5563E-01 
  2.1500E-01  1.6195E+03  1.6193E+03  1.5564E-01 
  2.1600E-01  1.6052E+03  1.6051E+03  1.5564E-01 
  2.1700E-01  1.5911E+03  1.5910E+03  1.5565E-01 
  2.1800E-01  1.5772E+03  1.5771E+03  1.5565E-01 
  2.1900E-01  1.5635E+03  1.5634E+03  1.5566E-01 
  2.2000E-01  1.5500E+03  1.5498E+03  1.5566E-01 
  2.2100E-01  1.5366E+03  1.5364E+03  1.5567E-01 
  2.2200E-01  1.5234E+03  1.5232E+03  1.5567E-01 
  2.2300E-01  1.5103E+03  1.5102E+03  1.5568E-01 
  2.2400E-01  1.4974E+03  1.4973E+03  1.5568E-01 
  2.2500E-01  1.4847E+03  1.4846E+03  1.5569E-01 
  2.2600E-01  1.4722E+03  1.4720E+03  1.5569E-01 
  2.2700E-01  1.4597E+03  1.4596E+03  1.5570E-01 
  2.2800E-01  1.4475E+03  1.4473E+03  1.5570E-01 
  2.2900E-01  1.4354E+03  1.4352E+03  1.5571E-01 
  2.3000E-01  1.4235E+03  1.4233E+03  1.5571E-01 
  2.3100E-01  1.4116E+03  1.4115E+03  1.5572E-01 
  2.3200E-01  1.4000E+03  1.3998E+03  1.5573E-01 
  2.3300E-01  1.3886E+03  1.3885E+03  1.5573E-01 
  2.3400E-01  1.3773E+03  1.3771E+03  1.5574E-01 
  2.3500E-01  1.3660E+03  1.3658E+03  1.5574E-01 
  2.3600E-01  1.3550E+03  1.3548E+03  1.5575E-01 
  2.3700E-01  1.3440E+03  1.3439E+03  1.5575E-01 
  2.3800E-01  1.3332E+03  1.3330E+03  1.5576E-01 
  2.3900E-01  1.3224E+03  1.3223E+03  1.5576E-01 
  2.4000E-01  1.3118E+03  1.3117E+03  1.5577E-01 
  2.4100E-01  1.3013E+03  1.3012E+03  1.5578E-01 
  2.4200E-01  1.2910E+03  1.2908E+03  1.5578E-01 
  2.4300E-01  1.2808E+03  1.2806E+03  1.5579E-01 
  2.4400E-01  1.2707E+03  1.2705E+03  1.5579E-01 
  2.4500E-01  1.2607E+03  1.2605E+03  1.5580E-01 
  2.4600E-01  1.2508E+03  1.2506E+03  1.5581E-01 
  2.4700E-01  1.2410E+03  1.2409E+03  1.5581E-01 
  2.4800E-01  1.2313E+03  1.2312E+03  1.5582E-01 
  2.4900E-01  1.2218E+03  1.2216E+03  1.5582E-01 
  2.5000E-01  1.2124E+03  1.2122E+03  1.5583E-01 
  2.5100E-01  1.2030E+03  1.2029E+03  1.5584E-01 
  2.5200E-01  1.1938E+03  1.1936E+03  1.5584E-01 
  2.5300E-01  1.1847E+03  1.1845E+03  1.5585E-01 
  2.5400E-01  1.1751E+03  1.1750E+03  1.5585E-01 
  2.5500E-01  1.1658E+03  1.1656E+03  1.5586E-01 
  2.5600E-01  1.1564E+03  1.1563E+03  1.5587E-01 
  2.5700E-01  1.1472E+03  1.1470E+03  1.5587E-01 
  2.5800E-01  1.1381E+03  1.1379E+03  1.5588E-01 
  2.5900E-01  1.1291E+03  1.1289E+03  1.5589E-01 
  2.6000E-01  1.1202E+03  1.1200E+03  1.5589E-01 
  2.6100E-01  1.1113E+03  1.1112E+03  1.5590E-01 
  2.6200E-01  1.1027E+03  1.1025E+03  1.5591E-01 
  2.6300E-01  1.0941E+03  1.0939E+03  1.5591E-01 
  2.6400E-01  1.0855E+03  1.0854E+03  1.5592E-01 
  2.6500E-01  1.0771E+03  1.0770E+03  1.5592E-01 
  2.6600E-01  1.0688E+03  1.0686E+03  1.5593E-01 
  2.6700E-01  1.0605E+03  1.0604E+03  1.5594E-01 
  2.6800E-01  1.0524E+03  1.0522E+03  1.5594E-01 
  2.6900E-01  1.0443E+03  1.0442E+03  1.5595E-01 
  2.7000E-01  1.0363E+03  1.0362E+03  1.5596E-01 
  2.7100E-01  1.0285E+03  1.0283E+03  1.5596E-01 
  2.7200E-01  1.0207E+03  1.0205E+03  1.5597E-01 
  2.7300E-01  1.0131E+03  1.0130E+03  1.5598E-01 
  2.7400E-01  1.0056E+03  1.0054E+03  1.5598E-01 
  2.7500E-01  9.9803E+02  9.9787E+02  1.5599E-01 
  2.7600E-01  9.9057E+02  9.9041E+02  1.5600E-01 
  2.7700E-01  9.8345E+02  9.8329E+02  1.5601E-01 
  2.7800E-01  9.7614E+02  9.7598E+02  1.5601E-01 
  2.7900E-01  9.6890E+02  9.6874E+02  1.5602E-01 
  2.8000E-01  9.6191E+02  9.6175E+02  1.5603E-01 
  2.8100E-01  9.5483E+02  9.5467E+02  1.5603E-01 
  2.8200E-01  9.4783E+02  9.4767E+02  1.5604E-01 
  2.8300E-01  9.4089E+02  9.4074E+02  1.5605E-01 
  2.8400E-01  9.3405E+02  9.3390E+02  1.5606E-01 
  2.8500E-01  9.2726E+02  9.2710E+02  1.5606E-01 
  2.8600E-01  9.2054E+02  9.2038E+02  1.5607E-01 
  2.8700E-01  9.1389E+02  9.1373E+02  1.5608E-01 
  2.8800E-01  9.0730E+02  9.0715E+02  1.5608E-01 
  2.8900E-01  9.0084E+02  9.0068E+02  1.5609E-01 
  2.9000E-01  8.9439E+02  8.9424E+02  1.5610E-01 
  2.9100E-01  8.8801E+02  8.8785E+02  1.5611E-01 
  2.9200E-01  8.8169E+02  8.8154E+02  1.5611E-01 
  2.9300E-01  8.7544E+02  8.7528E+02  1.5612E-01 
  2.9400E-01  8.6926E+02  8.6910E+02  1.5613E-01 
  2.9500E-01  8.6317E+02  8.6301E+02  1.5614E-01 
  2.9600E-01  8.5710E+02  8.5694E+02  1.5614E-01 
  2.9700E-01  8.5110E+02  8.5094E+02  1.5615E-01 
  2.9800E-01  8.4515E+02  8.4500E+02  1.5616E-01 
  2.9900E-01  8.3927E+02  8.3911E+02  1.5617E-01 
  3.0000E-01  8.3346E+02  8.3330E+02  1.5617E-01 
  3.0100E-01  8.2774E+02  8.2758E+02  1.5618E-01 
  3.0200E-01  8.2207E+02  8.2191E+02  1.5619E-01 
  3.0300E-01  8.1643E+02  8.1627E+02  1.5620E-01 
  3.0400E-01  8.1086E+02  8.1071E+02  1.5621E-01 
  3.0500E-01  8.0532E+02  8.0516E+02  1.5621E-01 
  3.0600E-01  7.9983E+02  7.9967E+02  1.5622E-01 
  3.0700E-01  7.9439E+02  7.9423E+02  1.5623E-01 
  3.0800E-01  7.8901E+02  7.8885E+02  1.5624E-01 
  3.0900E-01  7.8368E+02  7.8352E+02  1.5624E-01 
  3.1000E-01  7.7840E+02  7.7824E+02  1.5625E-01 
  3.1100E-01  7.7317E+02  7.7301E+02  1.5626E-01 
  3.1200E-01  7.6799E+02  7.6783E+02  1.5627E-01 
  3.1300E-01  7.6286E+02  7.6270E+02  1.5628E-01 
  3.1400E-01  7.5778E+02  7.5762E+02  1.5628E-01 
  3.1500E-01  7.5275E+02  7.5259E+02  1.5629E-01 
  3.1600E-01  7.4777E+02  7.4761E+02  1.5630E-01 
  3.1700E-01  7.4283E+02  7.4268E+02  1.5631E-01 
  3.1800E-01  7.3794E+02  7.3779E+02  1.5632E-01 
  3.1900E-01  7.3300E+02  7.3285E+02  1.5633E-01 
  3.2000E-01  7.2818E+02  7.2802E+02  1.5633E-01 
  3.2100E-01  7.2328E+02  7.2312E+02  1.5634E-01 
  3.2200E-01  7.1844E+02  7.1828E+02  1.5635E-01 
  3.2300E-01  7.1361E+02  7.1346E+02  1.5636E-01 
  3.2400E-01  7.0883E+02  7.0868E+02  1.5637E-01 
  3.2500E-01  7.0437E+02  7.0421E+02  1.5637E-01 
  3.2600E-01  6.9966E+02  6.9951E+02  1.5638E-01 
  3.2700E-01  6.9504E+02  6.9489E+02  1.5639E-01 
  3.2800E-01  6.9043E+02  6.9027E+02  1.5640E-01 
  3.2900E-01  6.8585E+02  6.8570E+02  1.5641E-01 
  3.3000E-01  6.8138E+02  6.8122E+02  1.5642E-01 
  3.3100E-01  6.7689E+02  6.7673E+02  1.5643E-01 
  3.3200E-01  6.7244E+02  6.7228E+02  1.5643E-01 
  3.3300E-01  6.6803E+02  6.6788E+02  1.5644E-01 
  3.3400E-01  6.6367E+02  6.6351E+02  1.5645E-01 
  3.3500E-01  6.5934E+02  6.5918E+02  1.5646E-01 
  3.3600E-01  6.5506E+02  6.5490E+02  1.5647E-01 
  3.3700E-01  6.5081E+02  6.5065E+02  1.5648E-01 
  3.3800E-01  6.4666E+02  6.4650E+02  1.5649E-01 
  3.3900E-01  6.4249E+02  6.4233E+02  1.5649E-01 
  3.4000E-01  6.3836E+02  6.3820E+02  1.5650E-01 
  3.4100E-01  6.3427E+02  6.3411E+02  1.5651E-01 
  3.4200E-01  6.3021E+02  6.3006E+02  1.5652E-01 
  3.4300E-01  6.2619E+02  6.2603E+02  1.5653E-01 
  3.4400E-01  6.2221E+02  6.2206E+02  1.5654E-01 
  3.4500E-01  6.1827E+02  6.1812E+02  1.5655E-01 
  3.4600E-01  6.1436E+02  6.1420E+02  1.5656E-01 
  3.4700E-01  6.1048E+02  6.1032E+02  1.5657E-01 
  3.4800E-01  6.0663E+02  6.0648E+02  1.5658E-01 
  3.4900E-01  6.0282E+02  6.0267E+02  1.5659E-01 
  3.5000E-01  5.9904E+02  5.9889E+02  1.5660E-01 
  3.5100E-01  5.9542E+02  5.9527E+02  1.5660E-01 
  3.5200E-01  5.9171E+02  5.9155E+02  1.5661E-01 
  3.5300E-01  5.8803E+02  5.8788E+02  1.5662E-01 
  3.5400E-01  5.8440E+02  5.8424E+02  1.5663E-01 
  3.5500E-01  5.8079E+02  5.8063E+02  1.5664E-01 
  3.5600E-01  5.7720E+02  5.7705E+02  1.5665E-01 
  3.5700E-01  5.7365E+02  5.7349E+02  1.5666E-01 
  3.5800E-01  5.7013E+02  5.6997E+02  1.5667E-01 
  3.5900E-01  5.6670E+02  5.6654E+02  1.5668E-01 
  3.6000E-01  5.6324E+02  5.6308E+02  1.5669E-01 
  3.6100E-01  5.5981E+02  5.5965E+02  1.5670E-01 
  3.6200E-01  5.5642E+02  5.5626E+02  1.5671E-01 
  3.6300E-01  5.5305E+02  5.5289E+02  1.5672E-01 
  3.6400E-01  5.4971E+02  5.4955E+02  1.5673E-01 
  3.6500E-01  5.4639E+02  5.4623E+02  1.5674E-01 
  3.6600E-01  5.4314E+02  5.4298E+02  1.5674E-01 
  3.6700E-01  5.3988E+02  5.3972E+02  1.5675E-01 
  3.6800E-01  5.3666E+02  5.3650E+02  1.5676E-01 
  3.6900E-01  5.3345E+02  5.3330E+02  1.5677E-01 
  3.7000E-01  5.3028E+02  5.3012E+02  1.5678E-01 
  3.7100E-01  5.2712E+02  5.2697E+02  1.5679E-01 
  3.7200E-01  5.2409E+02  5.2393E+02  1.5680E-01 
  3.7300E-01  5.2101E+02  5.2086E+02  1.5681E-01 
  3.7400E-01  5.1794E+02  5.1778E+02  1.5682E-01 
  3.7500E-01  5.1488E+02  5.1473E+02  1.5683E-01 
  3.7600E-01  5.1186E+02  5.1170E+02  1.5684E-01 
  3.7700E-01  5.0885E+02  5.0870E+02  1.5685E-01 
  3.7800E-01  5.0587E+02  5.0572E+02  1.5686E-01 
  3.7900E-01  5.0292E+02  5.0276E+02  1.5687E-01 
  3.8000E-01  4.9999E+02  4.9984E+02  1.5688E-01 
  3.8100E-01  4.9709E+02  4.9693E+02  1.5689E-01 
  3.8200E-01  4.9422E+02  4.9406E+02  1.5690E-01 
  3.8300E-01  4.9136E+02  4.9121E+02  1.5691E-01 
  3.8400E-01  4.8854E+02  4.8839E+02  1.5692E-01 
  3.8500E-01  4.8576E+02  4.8560E+02  1.5693E-01 
  3.8600E-01  4.8298E+02  4.8283E+02  1.5694E-01 
  3.8700E-01  4.8022E+02  4.8006E+02  1.5695E-01 
  3.8800E-01  4.7748E+02  4.7732E+02  1.5696E-01 
  3.8900E-01  4.7475E+02  4.7460E+02  1.5697E-01 
  3.9000E-01  4.7206E+02  4.7191E+02  1.5698E-01 
  3.9100E-01  4.6939E+02  4.6923E+02  1.5699E-01 
  3.9200E-01  4.6673E+02  4.6657E+02  1.5700E-01 
  3.9300E-01  4.6411E+02  4.6395E+02  1.5701E-01 
  3.9400E-01  4.6149E+02  4.6134E+02  1.5702E-01 
  3.9500E-01  4.5890E+02  4.5874E+02  1.5703E-01 
  3.9600E-01  4.5633E+02  4.5617E+02  1.5704E-01 
  3.9700E-01  4.5378E+02  4.5362E+02  1.5706E-01 
